,x,y,mass,size,ecc,signal,raw_mass,ep,frame,particle
0,62.22044545973729,85.35636778983438,0.05993864952283034,1.2110287030880098,0.04155690115502759,0.008728929542159758,12.69770336151123,0.07629325574117467,0,0.0
1,62.15997673065736,85.63816172193135,0.06006523515964036,1.206681033150426,0.06042283470242334,0.008910200678131641,12.702526092529297,0.0734080269684061,1,0.0
2,61.86741308190925,85.64643488509134,0.060306644108980935,1.2022861742467617,0.0754366113724775,0.009061988360512752,12.703487396240234,0.07289231473822005,2,0.0
3,61.78692352597782,85.68651488616463,0.060227511694034515,1.1973896496740426,0.053096343538238236,0.008965566539392178,12.702678680419922,0.07334769398948925,3,0.0
4,61.32673267326733,85.77475247524752,0.056575881942451105,1.1747129415518947,0.02822832137866922,0.008927506123344697,12.702387809753418,0.07354937320336973,4,0.0
5,61.00637619553666,85.95058448459086,0.06964423906274426,1.2610826447023187,0.05847049040794823,0.009436387333156104,12.707958221435547,0.07041760316808926,5,0.0
6,60.80456570155902,85.90590200445435,0.0648100563112526,1.2535028870132516,0.09298049109907612,0.009201873251319272,12.704753875732422,0.07220715537647036,6,0.0
7,60.29660023446659,85.98827667057445,0.06042167479436145,1.2425628697759474,0.05861676405323425,0.009031375775241601,12.70124340057373,0.07417945515125411,7,0.0
8,59.96286472148541,86.01114058355438,0.06975938859668399,1.2638621285987253,0.06260374726844538,0.009436946467986427,12.70730209350586,0.07066857883389073,8,0.0
9,59.58170731707317,86.02682926829269,0.05623173279160674,1.260565107498975,0.13755602247523588,0.008743348696255926,12.699549674987793,0.07522587311041062,9,0.0
10,58.966191230850505,86.02588483888009,0.06964231407346118,1.26537037125085,0.06411419159192405,0.009381294288818067,12.705242156982422,0.07187865909568034,10,0.0
11,58.322209436133484,86.00920598388953,0.06129161079848943,1.2436258655402501,0.05203113071032405,0.008992727706337631,12.699016571044922,0.07551686533659166,11,0.0
12,57.88306240167803,86.01835343471421,0.0694486559879976,1.2654913175431655,0.06181747907214023,0.009286527150990764,12.70418930053711,0.07249471270921524,12,0.0
13,57.026497085320614,86.03550609432962,0.06939129341756833,1.2636116339367265,0.06077307075252828,0.00937720181318491,12.70382308959961,0.07260844153372396,13,0.0
14,56.30439882697947,86.03049853372434,0.059503514077049506,1.2412745318192542,0.055691523363584926,0.008899352545247874,12.697978019714355,0.07606166650265078,14,0.0
15,55.69033760186263,86.01920838183935,0.059575750347670646,1.243609976703305,0.05799918912124849,0.0088427336080652,12.698817253112793,0.07565863377175969,15,0.0
16,54.71394517282479,86.00119189511324,0.059187761654323774,1.2380537611969142,0.056961023513476296,0.008994564494548607,12.69959545135498,0.07513343609344479,16,0.0
17,53.93596584845251,86.00747065101388,0.06724123083310617,1.2593301738065168,0.055603594455720565,0.0091496872264899,12.70199203491211,0.07380687408822784,17,0.0
18,53.028418230563005,86.03860589812332,0.06764901953562141,1.2587495390842343,0.05590407163241882,0.009249597845353062,12.701366424560547,0.07412193893641868,18,0.0
19,52.284776119402984,86.04477611940298,0.05832854912258285,1.237715758365976,0.05790514097519839,0.00887986867239321,12.695857048034668,0.07745157585550622,19,0.0
20,51.70241602828521,86.07307012374778,0.05890568334099949,1.242775231873946,0.06516141367200663,0.00885147274717435,12.697672843933105,0.07632507925877162,20,0.0
21,51.03311965811966,86.08333333333333,0.06778080038464239,1.2616974050382848,0.0613025245213776,0.009232961590856736,12.699199676513672,0.0754139439202453,21,0.0
22,50.31242158092848,86.25595984943538,0.05450403332235381,1.179073068081249,0.03278489943297962,0.00868508435625964,12.69190502166748,0.08020284963193476,22,0.0
23,49.77829367382473,86.31746952988972,0.05949337301230624,1.2009379193967196,0.049802116386876566,0.00880488109003952,12.697596549987793,0.07641378531337252,23,0.0
24,49.0574456218628,86.25934188510875,0.06343512126346466,1.2125022639568102,0.007936642137709423,0.009021726671602615,12.695033073425293,0.07801442750550329,24,0.0
25,48.67461773700306,86.28134556574923,0.055156742675562725,1.189659833682585,0.03843313216396476,0.008602427756739141,12.694453239440918,0.07830276574471443,25,0.0
26,48.060589216231236,86.26014452473596,0.0631583410316365,1.2139178071303007,0.011676008008836768,0.008952405204595504,12.69483470916748,0.07824542790774573,26,0.0
27,47.805299539170505,86.64170506912443,0.05885261233299022,1.210552678745718,0.048774966363712306,0.008644824968267573,12.69363021850586,0.07909336476883368,27,0.0
28,47.21184510250569,86.65318906605923,0.0588194036719402,1.2104800531184816,0.05202511123876974,0.008541542104979927,12.692333221435547,0.07997831480108064,28,0.0
29,47.035320088300224,86.72130242825607,0.062279082046660744,1.219099294769596,0.018165877475463093,0.008764440354248615,12.694437980651855,0.07847632831941534,29,0.0
30,46.94002242152467,86.76513452914799,0.06271319510273553,1.2081561387525128,0.010825994340366775,0.008964049748429124,12.696758270263672,0.07695992551521975,30,0.0
31,46.92898474487112,86.9347711730668,0.06691006160162594,1.2693530765847794,0.07497316796539988,0.008975310735620523,12.695735931396484,0.07754696516108503,31,0.0
32,46.92600422832981,86.98202959830867,0.06666461721208927,1.2671654372034968,0.0709560590683548,0.008984924624250934,12.696895599365234,0.0769112377123442,32,0.0
33,46.93150684931507,87.01106427818756,0.06628996980534647,1.2686958032152114,0.07304727050296575,0.008906186670370575,12.69582748413086,0.07775239240220007,33,0.0
34,46.91701680672269,87.03939075630252,0.06626600750757335,1.2708347683327528,0.07762280165092615,0.008874911719764287,12.694454193115234,0.078492812400724,34,0.0
35,46.97,87.09684210526316,0.0668608245381116,1.271344087756609,0.07722518422619835,0.00897342645116761,12.69497299194336,0.07824165011478737,35,0.0
36,47.17855038302888,87.31467295226871,0.057933885143232444,1.197866892161919,0.06762420352060786,0.008705445322053196,12.691126823425293,0.08078056484634157,36,0.0
37,47.448808757244045,87.25949774629748,0.0491058309521815,1.1983031574604368,0.07698379951995579,0.008063095230396835,12.683878898620605,0.08624370835646675,37,0.0
38,47.844198895027624,87.17845303867404,0.061203698846715976,1.2651294345591069,0.10586154440270634,0.008622620555752802,12.69375228881836,0.07912422079047597,38,0.0
39,48.13879003558719,87.33392645314353,0.057192039392190544,1.199792390107318,0.07839163467550636,0.0086500415450822,12.691218376159668,0.08058533752202977,39,0.0
40,48.57664709719504,87.31180691454664,0.04951325605844412,1.2090655608082967,0.11478902566472929,0.008236060205416342,12.690455436706543,0.08125674176845461,40,0.0
41,49.12235294117647,87.37588235294118,0.05784248616062489,1.209521052512352,0.07800753921777664,0.008676372924093734,12.691828727722168,0.08031713463438656,41,0.0
42,49.57560025957171,87.32316677482154,0.048859605444871605,1.2115601517456154,0.11861726083366012,0.008085139122934626,12.688960075378418,0.08236969421702652,42,0.0
43,50.00498338870432,87.71040974529346,0.06105035136961167,1.221349398067346,0.026300551955152657,0.00862006622328404,12.69356918334961,0.0790522800010683,43,0.0
44,50.562179487179485,87.70320512820513,0.04910249717025373,1.2084106960203598,0.09661859867226529,0.008026369729753013,12.687418937683105,0.08355386638107368,44,0.0
45,51.049244543928374,87.75713486289871,0.06065891315992744,1.211306555017942,0.017133687649921518,0.008655860579620311,12.693522453308105,0.07911102887000558,45,0.0
46,51.571711830799735,87.73231989424984,0.04885887885769557,1.1984237278996364,0.0969825899799977,0.008234642504105993,12.691081047058105,0.08080614305567566,46,0.0
47,52.04494976203067,87.92437863564251,0.06441240005397882,1.2687514734682344,0.07598416629255489,0.0086859661627523,12.695659637451172,0.0777643724024953,47,0.0
48,52.56086387434555,87.75130890052355,0.04892603752968857,1.1952677195783246,0.08043315460245758,0.008165012807637817,12.689433097839355,0.08178251897529393,48,0.0
49,52.85499398315283,87.69374247894103,0.05652364805133442,1.1906171482649153,0.08541645663463557,0.00863839145910887,12.694988250732422,0.07813665691902567,49,0.0
50,53.173965206958606,87.69946010797841,0.05596739846613484,1.190091062336269,0.06525196127397143,0.008561299705377555,12.694286346435547,0.07849695400966122,50,0.0
51,53.57076411960133,87.7421926910299,0.04898876121411385,1.1963399332465663,0.092342574618804,0.008267870663378684,12.692089080810547,0.08008291606432455,51,0.0
52,53.857314148681056,87.6978417266187,0.05705177458181213,1.1904898937203792,0.08994931846892493,0.008721943955852574,12.69655990600586,0.0772470448979333,52,0.0
53,54.00579862941487,87.94043226146547,0.06564510902416394,1.2696530933025094,0.07829790407976714,0.008824197575731052,12.698009490966797,0.07612892844192057,53,0.0
54,54.083333333333336,87.95411392405063,0.065027469526398,1.2668692931424193,0.0693307136851264,0.008745783085037704,12.696758270263672,0.07692462120142582,54,0.0
55,54.40548970679975,87.9544603867748,0.05283964340330614,1.260019110847356,0.15199027687581182,0.00840555774662699,12.692927360534668,0.07939965635886762,55,0.0
56,54.45157068062827,87.78141361256544,0.04915803000596546,1.1856471491568075,0.06261742456472986,0.008203728829529576,12.691279411315918,0.08072465917299634,56,0.0
57,54.416666666666664,87.95410628019323,0.05298423140577181,1.2654838107863406,0.14661449898420398,0.008158803749077181,12.691401481628418,0.0805704203024091,57,0.0
58,54.44444444444444,87.77050264550265,0.04851986817905506,1.1860632494711367,0.07151059677443622,0.008182914276229525,12.690638542175293,0.08104689922533273,58,0.0
59,54.4449481865285,87.73251295336787,0.04918575003283506,1.1974714292350348,0.08397243827611019,0.008123294208790766,12.691508293151855,0.08055881695588063,59,0.0
60,54.43007222586999,87.70256073539068,0.04870326435534412,1.202426961401367,0.10404417237258945,0.008154518982674164,12.691920280456543,0.08027540639096147,60,0.0
61,54.19557625145518,87.65483119906868,0.0563161057411783,1.2046185857507783,0.04376708293271453,0.008358909757858246,12.692790985107422,0.07975139981887848,61,0.0
62,54.13071512309496,87.61957796014067,0.056442078602443935,1.2086053311252538,0.06146464542008856,0.008436535781725207,12.694528579711914,0.07840344436679182,62,0.0
63,54.09271137026239,87.37084548104956,0.05688370983130892,1.2071217242444348,0.09553996621407113,0.008457927700865175,12.694453239440918,0.07845838297121821,63,0.0
64,53.87405247813411,87.63148688046647,0.0564974662309192,1.2097755375737904,0.08489006937379344,0.008400497894393233,12.69326400756836,0.07927296227685686,64,0.0
65,53.828802776171194,87.65297860034703,0.0572096244913505,1.208701821186284,0.07226113293309348,0.008437509684959155,12.69430160522461,0.07853454790321535,65,0.0
66,53.692260816575256,87.63375990249848,0.051864615865210566,1.227354283602395,0.12015315947559091,0.008059401002820654,12.68929672241211,0.08204890573583193,66,0.0
67,53.434073107049606,87.70496083550914,0.04802748926298133,1.2024235752462997,0.10162022355399096,0.007994131698472741,12.68885326385498,0.08252748530333509,67,0.0
68,53.194850789935636,87.6670567583382,0.05581131645293884,1.200253532803635,0.042779426490754106,0.00832761012024541,12.69186019897461,0.08027555574388111,68,0.0
69,53.15133876600699,87.62689173457508,0.05539950648913127,1.207996253145474,0.05146009627301073,0.008222860392740672,12.690898895263672,0.0807985332584198,69,0.0
70,52.97944444444445,87.24555555555555,0.058473760257356226,1.2112894873737747,0.02702991974667462,0.008283782703125466,12.690226554870605,0.08145929252551005,70,0.0
71,52.72663139329806,87.06760728982951,0.054901181625811,1.2509843273134997,0.08644536646857169,0.008230335869830572,12.690150260925293,0.08131238112039502,71,0.0
72,52.43509933774835,87.23708609271523,0.0475549731729781,1.1918598077477498,0.08152449754414724,0.00803080672788703,12.68958568572998,0.08186670732120663,72,0.0
73,52.14451827242525,87.09302325581396,0.0599659562578776,1.2581957234092458,0.11812747887263261,0.00846695395667707,12.693522453308105,0.07915661608784755,73,0.0
74,51.96503131524008,87.00939457202506,0.0637796326010568,1.269318361285478,0.07273066161059162,0.00848841665619493,12.694103240966797,0.07869990409242064,74,0.0
75,51.82440640530094,86.93870789618995,0.05864398450561639,1.2604067077823091,0.12147209613938686,0.008257435697919481,12.689921379089355,0.08158597288307069,75,0.0
76,51.56548018804567,86.80389523169913,0.046720861710419975,1.1838968789609303,0.07713880472784389,0.008001222119648821,12.687678337097168,0.08321493321520484,76,0.0
77,51.29558652729384,86.94947735191637,0.05495246169295475,1.2451998426291355,0.06481180267704562,0.00813755965836438,12.689753532409668,0.08173740779497289,77,0.0
78,51.06035437430786,86.76744186046511,0.060290001635860214,1.2092757046222298,0.02977020341243756,0.008512707872172953,12.692102432250977,0.07998245578294538,78,0.0
79,50.881632653061224,86.65014577259475,0.05570353170104802,1.2061552535336495,0.09916379592123296,0.008282449319980902,12.69051742553711,0.08118365303256533,79,0.0
80,50.8522396742292,86.369400814427,0.0551192334559607,1.206198842908136,0.04909011911627983,0.008176500599924363,12.689753532409668,0.08158208455118618,80,0.0
81,50.91620727673649,86.24476295479603,0.058880540016057026,1.2118488885897387,0.032870116657091546,0.008277032912951787,12.69001293182373,0.08156932498299074,81,0.0
82,50.70659722222222,86.07118055555556,0.05493242596381892,1.2504628772608195,0.07924674723069627,0.008106347581466333,12.688761711120605,0.08238332517427736,82,0.0
83,50.58626974483597,86.00972053462941,0.05079451810597973,1.2652472275330513,0.14927326372889502,0.007869138588714963,12.686335563659668,0.08414697722160208,83,0.0
84,50.412377450980394,85.98713235294117,0.05051908611929647,1.2621954107435032,0.14709423341659175,0.007893607206140074,12.686747550964355,0.0839400856844703,84,0.0
85,50.11129296235679,85.78177850518276,0.05959243557263554,1.2087153956996737,0.03567418995213952,0.00829027336116861,12.691554069519043,0.08054965535180511,85,0.0
86,50.03825136612022,85.73387978142077,0.05954814115229865,1.2175851761590175,0.03465992141026342,0.008297691799910467,12.689905166625977,0.08154035303730475,86,0.0
87,50.09237875288684,85.35450346420323,0.0558654442239397,1.2043032924987482,0.10617357221741887,0.008224993231584656,12.690241813659668,0.0814323135786319,87,0.0
88,49.9507927829415,85.24876981957354,0.059512925197400125,1.2134204892623242,0.03028970122868562,0.008297318712595425,12.689464569091797,0.08198650904612378,88,0.0
89,49.93298969072165,85.08350515463917,0.06440000510550821,1.27100901551711,0.07153735879578395,0.008464949124693089,12.69076156616211,0.0810047483412405,89,0.0
90,49.91985522233713,85.05894519131334,0.06347514374154,1.271149924399123,0.07523350882779722,0.00836926662569426,12.690333366394043,0.08134469032187631,90,0.0
91,49.91120289106866,85.02684563758389,0.06336227285440253,1.2695553471810572,0.07002598096951308,0.008341445316403018,12.69135570526123,0.08058056008498198,91,0.0
92,49.705950317735415,84.99826689774697,0.05610044746730004,1.2484536940662294,0.06886948841451984,0.008264364011647318,12.68958568572998,0.08178399778525652,92,0.0
93,49.56332453825858,84.77836411609499,0.04777431249543228,1.1942032373225515,0.07955550321357666,0.008035916679640653,12.68702220916748,0.08365359564824659,93,0.0
94,49.30878712871287,84.77413366336634,0.05193799733084869,1.173131545804807,0.03660519823050658,0.008195661707528723,12.690485954284668,0.08123835380099165,94,0.0
95,49.07017543859649,84.79111842105263,0.06103718019555866,1.2073877122611851,0.029470052299118917,0.00853315841549751,12.693293571472168,0.07907212354317798,95,0.0
96,49.036752605595176,84.7739989029073,0.061028572830915034,1.2108940495938298,0.0289529577948417,0.00853663525610715,12.693246841430664,0.07912757189334352,96,0.0
97,49.00873839432004,84.73129437465866,0.060813571275653316,1.2192700003270125,0.027106610849924582,0.008469394142704312,12.691920280456543,0.08018472095287796,97,0.0
98,48.963362068965516,84.25592672413794,0.060783570569797,1.2174645077316246,0.030903977187075552,0.008351190999621894,12.691829681396484,0.08023277737985171,98,0.0
99,48.91815856777494,84.07212276214834,0.06435236501788526,1.2731739343104982,0.07515842548038115,0.008393786741463294,12.691951751708984,0.08008621587618733,99,0.0
100,48.889002036659875,84.0478615071283,0.06440185995730317,1.2736559946343535,0.07301803384753305,0.008361748619710951,12.692562103271484,0.07975321088784479,100,0.0
101,48.89759344598054,84.03277009728623,0.06419586526568101,1.2704043810325303,0.06906548013653117,0.008381948613798595,12.692546844482422,0.07977803676751628,101,0.0
102,48.710691823899374,84.02172670097198,0.0556919826979656,1.2552918289216957,0.07989904629897293,0.008119757340183664,12.68915843963623,0.08215318865404718,102,0.0
103,48.79314040728832,83.93301178992498,0.060612220125802786,1.2618144780684823,0.11157309910736034,0.00828302043519813,12.691981315612793,0.08011655183226761,103,0.0
104,48.77267573696145,83.74603174603175,0.05625041663681095,1.1964137644191537,0.09053914536135807,0.008131437779130835,12.689982414245605,0.08144677144895228,104,0.0
105,48.30583613916947,83.9719416386083,0.05626132090676705,1.252382689833956,0.06134925171427223,0.008050862419318516,12.689753532409668,0.08162237948047293,105,0.0
106,48.302721088435376,83.96882086167801,0.05594747985495274,1.250170056459531,0.06208105193304301,0.008087645897399631,12.69007396697998,0.08148088550350933,106,0.0
107,48.31197301854975,83.95390668915121,0.05546888737599324,1.2498454092152682,0.05921893286071456,0.007950852322022639,12.68836498260498,0.08273315566429937,107,0.0
108,48.55874840357599,83.7330779054917,0.048354101819952394,1.2074164178651325,0.08652723662347113,0.007873752212061214,12.68746566772461,0.08336781166532614,108,0.0
109,48.333133971291865,83.74820574162679,0.05116833063218972,1.1845294626335345,0.04734088869276843,0.0078037824827801305,12.686563491821289,0.08401523785012041,109,0.0
110,48.33253588516747,83.74102870813397,0.05148675933516135,1.1857910770742457,0.04783278247246962,0.00785234666893908,12.687556266784668,0.08322703012939803,110,0.0
111,48.677856301531214,83.63839811542992,0.052124027575473415,1.2324145815530176,0.11282085328269507,0.007827813328472155,12.686946868896484,0.08364202736018936,111,0.0
112,48.80265339966832,83.65229408512991,0.05573780430933772,1.218522971087081,0.07344087646827058,0.00785690442171427,12.687191009521484,0.08358000362221614,112,0.0
113,48.796788482835,83.65116279069767,0.055777426874030325,1.218853372536286,0.0711268361657293,0.00787555030613385,12.68642807006836,0.0841791432579277,113,0.0
114,48.70408785845027,83.29164124466138,0.05104480544345285,1.1884639724404336,0.053061450735467634,0.00794168724104971,12.689311981201172,0.08209533089765915,114,0.0
115,48.305804907241175,83.68880909634949,0.050938723295248726,1.1971940063869286,0.0581202246300278,0.007773413788323414,12.686427116394043,0.08408887315228394,115,0.0
116,48.16843279419967,83.34188510875627,0.05779831951499889,1.2113517728883985,0.08273843885736315,0.008220062173075693,12.692072868347168,0.0801095207591296,116,0.0
117,48.11236559139785,83.15430107526882,0.060818762237021845,1.2661855339766022,0.12588137068717448,0.008338056113140091,12.693385124206543,0.07897117077641697,117,0.0
118,47.71853546910755,83.02917620137299,0.054818205656928264,1.2531425029593053,0.07498085443956559,0.007996935035764707,12.689556121826172,0.08170702500333694,118,0.0
119,47.15122470713525,83.09691160809372,0.06080223552912266,1.265163616942798,0.11861991909989045,0.008255894600599722,12.69282054901123,0.07944586130950543,119,0.0
120,46.94195519348269,82.9653767820774,0.06373664228855237,1.2712551329432749,0.06577008048263198,0.008275378708544223,12.69137191772461,0.08045593248647982,120,0.0
